

 One-dimensional plot values
 Input line #      29
 V(Gate)(Volts)      I(Drain)(Amps/um)   
 -1.500000E+00       -2.471536E-05
 -1.450000E+00       -2.345289E-05
 -1.400000E+00       -2.219976E-05
 -1.350000E+00       -2.095904E-05
 -1.300000E+00       -1.973192E-05
 -1.250000E+00       -1.851976E-05
 -1.200000E+00       -1.732205E-05
 -1.150000E+00       -1.614008E-05
 -1.100000E+00       -1.497845E-05
 -1.050000E+00       -1.383820E-05
 -1.000000E+00       -1.272169E-05
 -9.500000E-01       -1.163098E-05
 -9.000000E-01       -1.056703E-05
 -8.500000E-01       -9.532370E-06
 -8.000000E-01       -8.528829E-06
 -7.500000E-01       -7.560033E-06
 -7.000000E-01       -6.629232E-06
 -6.500000E-01       -5.739449E-06
 -6.000000E-01       -4.894024E-06
 -5.500000E-01       -4.096404E-06
 -5.000000E-01       -3.352750E-06
 -4.500000E-01       -2.666428E-06
 -4.000000E-01       -2.044812E-06
 -3.500000E-01       -1.495172E-06
 -3.000000E-01       -1.024297E-06
 -2.500000E-01       -6.402860E-07
 -2.000000E-01       -3.502577E-07
 -1.500000E-01       -1.580522E-07
 -1.000000E-01       -5.542197E-08
 -5.000000E-02       -1.550548E-08
  0.000000E+00        0.000000E+00
  0.000000E+00       -3.875974E-09
  3.125000E-02       -8.888122E-11
  5.000000E-02       -9.356654E-10
  6.250000E-02       -4.560867E-11
  1.000000E-01       -2.238865E-10
  1.250000E-01       -1.091925E-11
  1.500000E-01       -5.388534E-11
  2.000000E-01       -1.327407E-11
  2.500000E-01       -6.222601E-13
  2.500000E-01       -3.438593E-12
  3.000000E-01       -9.774976E-13
  3.500000E-01       -3.232138E-13
  4.000000E-01       -1.314371E-13
  4.500000E-01       -6.722957E-14
  5.000000E-01       -4.235377E-14
