

 One-dimensional plot values
 Input line #      29
 V(Gate)(Volts)      I(Drain)(Amps/um)   
 -1.500000E+00       -1.257220E-05
 -1.450000E+00       -1.180782E-05
 -1.400000E+00       -1.105612E-05
 -1.350000E+00       -1.031795E-05
 -1.300000E+00       -9.594261E-06
 -1.250000E+00       -8.885621E-06
 -1.200000E+00       -8.193766E-06
 -1.150000E+00       -7.519813E-06
 -1.100000E+00       -6.864859E-06
 -1.050000E+00       -6.229703E-06
 -1.000000E+00       -5.615936E-06
 -9.500000E-01       -5.024660E-06
 -9.000000E-01       -4.457063E-06
 -8.500000E-01       -3.914996E-06
 -8.000000E-01       -3.399448E-06
 -7.500000E-01       -2.912527E-06
 -7.000000E-01       -2.455470E-06
 -6.500000E-01       -2.030701E-06
 -6.000000E-01       -1.640125E-06
 -5.500000E-01       -1.286011E-06
 -5.000000E-01       -9.706567E-07
 -4.500000E-01       -6.966735E-07
 -4.000000E-01       -4.666137E-07
 -3.500000E-01       -2.831191E-07
 -3.000000E-01       -1.482341E-07
 -2.500000E-01       -6.205087E-08
 -2.000000E-01       -1.907548E-08
 -1.500000E-01       -4.413880E-09
 -1.000000E-01       -9.054654E-10
 -5.000000E-02       -1.815392E-10
  0.000000E+00        0.000000E+00
  0.000000E+00       -3.636197E-11
  3.125000E-02       -5.699539E-12
  5.000000E-02       -7.337624E-12
  6.250000E-02       -2.359134E-12
  1.000000E-01       -1.510824E-12
  1.250000E-01       -3.879980E-13
  1.500000E-01       -3.295518E-13
  2.000000E-01       -8.609801E-14
  2.500000E-01       -2.175838E-14
  2.500000E-01       -3.458950E-14
  3.000000E-01       -2.321582E-14
  3.500000E-01       -2.052873E-14
  4.000000E-01       -1.982143E-14
  4.500000E-01       -1.959543E-14
  5.000000E-01       -1.950451E-14
