

 One-dimensional plot values
 Input line #      29
 V(Drain)(Volts)     I(Drain)(Amps/um)   
 -1.500000E+00       -2.817326E-08
 -1.450000E+00       -2.783215E-08
 -1.400000E+00       -2.749255E-08
 -1.350000E+00       -2.715434E-08
 -1.300000E+00       -2.681734E-08
 -1.250000E+00       -2.648135E-08
 -1.200000E+00       -2.614618E-08
 -1.150000E+00       -2.581177E-08
 -1.100000E+00       -2.547804E-08
 -1.050000E+00       -2.514475E-08
 -1.000000E+00       -2.481152E-08
 -9.500000E-01       -2.447795E-08
 -9.000000E-01       -2.414334E-08
 -8.500000E-01       -2.380672E-08
 -8.000000E-01       -2.346619E-08
 -7.500000E-01       -2.312118E-08
 -7.000000E-01       -2.277075E-08
 -6.500000E-01       -2.241433E-08
 -6.000000E-01       -2.205171E-08
 -5.500000E-01       -2.168285E-08
 -5.000000E-01       -2.130753E-08
 -4.500000E-01       -2.092522E-08
 -4.000000E-01       -2.053466E-08
 -3.500000E-01       -2.013370E-08
 -3.000000E-01       -1.971877E-08
 -2.500000E-01       -1.928173E-08
 -2.000000E-01       -1.880396E-08
 -1.500000E-01       -1.820158E-08
 -1.000000E-01       -1.703756E-08
 -5.000000E-02       -1.317727E-08
  5.000000E-02        3.230016E-08
  1.000000E-01        9.079310E-08
  1.500000E-01        1.784383E-07
  2.000000E-01        2.948727E-07
  2.500000E-01        4.360483E-07
  3.000000E-01        5.975476E-07
  3.500000E-01        7.799558E-07
  4.000000E-01        9.847337E-07
  4.500000E-01        1.211824E-06
  5.000000E-01        1.460795E-06
