

 One-dimensional plot values
 Input line #      29
 V(Gate)(Volts)      I(Drain)(Amps/um)   
 -1.500000E+00       -1.118995E-06
 -1.450000E+00       -1.078436E-06
 -1.400000E+00       -1.037410E-06
 -1.350000E+00       -9.959033E-07
 -1.300000E+00       -9.539044E-07
 -1.250000E+00       -9.113997E-07
 -1.200000E+00       -8.683757E-07
 -1.150000E+00       -8.248188E-07
 -1.100000E+00       -7.807158E-07
 -1.050000E+00       -7.360538E-07
 -1.000000E+00       -6.908205E-07
 -9.500000E-01       -6.450057E-07
 -9.000000E-01       -5.986012E-07
 -8.500000E-01       -5.516034E-07
 -8.000000E-01       -5.040150E-07
 -7.500000E-01       -4.558443E-07
 -7.000000E-01       -4.071230E-07
 -6.500000E-01       -3.579111E-07
 -6.000000E-01       -3.083122E-07
 -5.500000E-01       -2.585109E-07
 -5.000000E-01       -2.088422E-07
 -4.500000E-01       -1.599301E-07
 -4.000000E-01       -1.129811E-07
 -3.500000E-01       -7.031297E-08
 -3.000000E-01       -3.583920E-08
 -2.500000E-01       -1.368246E-08
 -2.000000E-01       -3.757717E-09
 -1.500000E-01       -8.256064E-10
 -1.000000E-01       -1.691755E-10
 -5.000000E-02       -3.445620E-11
  0.000000E+00       -7.092065E-12
  5.000000E-02       -1.487165E-12
  1.000000E-01       -3.208571E-13
  1.500000E-01       -7.289238E-14
  2.000000E-01       -1.866172E-14
  2.500000E-01       -6.289678E-15
  3.000000E-01       -3.273482E-15
  3.500000E-01       -2.472936E-15
  4.000000E-01       -2.233268E-15
  4.500000E-01       -2.142670E-15
  5.000000E-01       -2.096604E-15
