

 One-dimensional plot values
 Input line #      29
 V(Drain)(Volts)     I(Drain)(Amps/um)   
 -1.500000E+00       -3.532447E-06
 -1.450000E+00       -3.510233E-06
 -1.400000E+00       -3.487398E-06
 -1.350000E+00       -3.463630E-06
 -1.300000E+00       -3.439322E-06
 -1.250000E+00       -3.414494E-06
 -1.200000E+00       -3.389112E-06
 -1.150000E+00       -3.363147E-06
 -1.100000E+00       -3.336455E-06
 -1.050000E+00       -3.308950E-06
 -1.000000E+00       -3.280200E-06
 -9.500000E-01       -3.250017E-06
 -9.000000E-01       -3.217875E-06
 -8.500000E-01       -3.182864E-06
 -8.000000E-01       -3.143560E-06
 -7.500000E-01       -3.097860E-06
 -7.000000E-01       -3.042784E-06
 -6.500000E-01       -2.974455E-06
 -6.000000E-01       -2.890009E-06
 -5.500000E-01       -2.786099E-06
 -5.000000E-01       -2.660250E-06
 -4.500000E-01       -2.510545E-06
 -4.000000E-01       -2.336591E-06
 -3.500000E-01       -2.137374E-06
 -3.000000E-01       -1.912219E-06
 -2.500000E-01       -1.660641E-06
 -2.000000E-01       -1.382351E-06
 -1.500000E-01       -1.077144E-06
 -1.000000E-01       -7.450315E-07
 -5.000000E-02       -3.859810E-07
  5.000000E-02        4.128133E-07
  1.000000E-01        8.522063E-07
  1.500000E-01        1.317464E-06
  2.000000E-01        1.805984E-06
  2.500000E-01        2.311529E-06
  3.000000E-01        2.827896E-06
  3.500000E-01        3.355827E-06
  4.000000E-01        3.897470E-06
  4.500000E-01        4.453297E-06
  5.000000E-01        5.023109E-06
