

 One-dimensional plot values
 Input line #      29
 V(Gate)(Volts)      I(Drain)(Amps/um)   
 -1.500000E+00       -7.468761E-07
 -1.450000E+00       -7.075407E-07
 -1.400000E+00       -6.677947E-07
 -1.350000E+00       -6.276320E-07
 -1.300000E+00       -5.870473E-07
 -1.250000E+00       -5.460367E-07
 -1.200000E+00       -5.045987E-07
 -1.150000E+00       -4.627349E-07
 -1.100000E+00       -4.204519E-07
 -1.050000E+00       -3.777646E-07
 -1.000000E+00       -3.347008E-07
 -9.500000E-01       -2.913107E-07
 -9.000000E-01       -2.476845E-07
 -8.500000E-01       -2.039874E-07
 -8.000000E-01       -1.605372E-07
 -7.500000E-01       -1.179840E-07
 -7.000000E-01       -7.773130E-08
 -6.500000E-01       -4.272950E-08
 -6.000000E-01       -1.763738E-08
 -5.500000E-01       -5.025114E-09
 -5.000000E-01       -1.055004E-09
 -4.500000E-01       -1.939841E-10
 -4.000000E-01       -3.433437E-11
 -3.500000E-01       -6.072427E-12
 -3.000000E-01       -1.142581E-12
 -2.500000E-01       -2.866572E-13
 -2.000000E-01       -1.372871E-13
 -1.500000E-01       -1.100054E-13
 -1.000000E-01       -1.038216E-13
 -5.000000E-02       -1.013732E-13
  0.000000E+00       -9.967638E-14
  1.562500E-02       -1.752019E-13
  3.125000E-02       -9.131515E-14
  5.000000E-02       -9.820926E-14
  6.250000E-02       -2.753406E-14
  1.000000E-01       -9.687222E-14
  1.250000E-01       -2.552960E-14
  1.500000E-01       -9.563985E-14
  2.000000E-01       -9.449980E-14
  2.500000E-01       -4.472287E-14
  2.500000E-01       -9.344484E-14
  3.000000E-01       -9.246762E-14
  3.500000E-01       -9.155965E-14
  4.000000E-01       -9.071374E-14
  4.500000E-01       -8.992699E-14
  5.000000E-01       -8.919735E-14
