

 One-dimensional plot values
 Input line #      29
 V(Gate)(Volts)      I(Drain)(Amps/um)   
 -1.500000E+00       -8.211568E-07
 -1.450000E+00       -7.816896E-07
 -1.400000E+00       -7.417996E-07
 -1.350000E+00       -7.014759E-07
 -1.300000E+00       -6.607113E-07
 -1.250000E+00       -6.195027E-07
 -1.200000E+00       -5.778452E-07
 -1.150000E+00       -5.357357E-07
 -1.100000E+00       -4.931740E-07
 -1.050000E+00       -4.501647E-07
 -1.000000E+00       -4.067196E-07
 -9.500000E-01       -3.628621E-07
 -9.000000E-01       -3.186346E-07
 -8.500000E-01       -2.741126E-07
 -8.000000E-01       -2.294309E-07
 -7.500000E-01       -1.848401E-07
 -7.000000E-01       -1.408286E-07
 -6.500000E-01       -9.840848E-08
 -6.000000E-01       -5.972354E-08
 -5.500000E-01       -2.877591E-08
 -5.000000E-01       -9.892652E-09
 -4.500000E-01       -2.369899E-09
 -4.000000E-01       -4.578464E-10
 -3.500000E-01       -8.239168E-11
 -3.000000E-01       -1.455974E-11
 -2.500000E-01       -2.591660E-12
 -2.000000E-01       -4.978694E-13
 -1.500000E-01       -1.331721E-13
 -1.000000E-01       -6.988472E-14
 -5.000000E-02       -5.889449E-14
  0.000000E+00       -5.694069E-14
  1.562500E-02       -2.375760E-13
  3.125000E-02       -1.494926E-13
  5.000000E-02       -5.654463E-14
  6.250000E-02       -4.222894E-14
  1.000000E-01       -5.641515E-14
  1.250000E-01       -1.907012E-14
  1.500000E-01       -5.632905E-14
  2.000000E-01       -5.624895E-14
  2.500000E-01       -3.282291E-14
  2.500000E-01       -5.616984E-14
  3.000000E-01       -5.609275E-14
  3.500000E-01       -5.601751E-14
  4.000000E-01       -5.594126E-14
  4.500000E-01       -5.586255E-14
  5.000000E-01       -5.578433E-14
