

 One-dimensional plot values
 Input line #      29
 V(Drain)(Volts)     I(Drain)(Amps/um)   
 -1.500000E+00       -1.086973E-06
 -1.450000E+00       -1.079307E-06
 -1.400000E+00       -1.071604E-06
 -1.350000E+00       -1.063852E-06
 -1.300000E+00       -1.056022E-06
 -1.250000E+00       -1.048055E-06
 -1.200000E+00       -1.039878E-06
 -1.150000E+00       -1.031549E-06
 -1.100000E+00       -1.023041E-06
 -1.050000E+00       -1.014333E-06
 -1.000000E+00       -1.005410E-06
 -9.500000E-01       -9.962667E-07
 -9.000000E-01       -9.868972E-07
 -8.500000E-01       -9.772849E-07
 -8.000000E-01       -9.674053E-07
 -7.500000E-01       -9.572351E-07
 -7.000000E-01       -9.467171E-07
 -6.500000E-01       -9.357229E-07
 -6.000000E-01       -9.240292E-07
 -5.500000E-01       -9.114534E-07
 -5.000000E-01       -8.974222E-07
 -4.500000E-01       -8.806744E-07
 -4.000000E-01       -8.586674E-07
 -3.500000E-01       -8.266852E-07
 -3.000000E-01       -7.799860E-07
 -2.500000E-01       -7.137418E-07
 -2.000000E-01       -6.243902E-07
 -1.500000E-01       -5.095711E-07
 -1.000000E-01       -3.677887E-07
 -5.000000E-02       -1.981259E-07
  0.000000E+00        1.958874E-27
  5.000000E-02        2.269276E-07
  1.000000E-01        4.827314E-07
  1.500000E-01        7.668496E-07
  2.000000E-01        1.077095E-06
  2.500000E-01        1.407814E-06
  3.000000E-01        1.753092E-06
  3.500000E-01        2.113640E-06
  4.000000E-01        2.491472E-06
  4.500000E-01        2.886957E-06
  5.000000E-01        3.299973E-06
