

 One-dimensional plot values
 Input line #      29
 V(Gate)(Volts)      I(Drain)(Amps/um)   
 -1.500000E+00       -1.551794E-05
 -1.450000E+00       -1.517446E-05
 -1.400000E+00       -1.482484E-05
 -1.350000E+00       -1.446882E-05
 -1.300000E+00       -1.410613E-05
 -1.250000E+00       -1.373647E-05
 -1.200000E+00       -1.335951E-05
 -1.150000E+00       -1.297493E-05
 -1.100000E+00       -1.258235E-05
 -1.050000E+00       -1.218139E-05
 -1.000000E+00       -1.177162E-05
 -9.500000E-01       -1.135231E-05
 -9.000000E-01       -1.092263E-05
 -8.500000E-01       -1.048268E-05
 -8.000000E-01       -1.003191E-05
 -7.500000E-01       -9.569322E-06
 -7.000000E-01       -9.094057E-06
 -6.500000E-01       -8.605834E-06
 -6.000000E-01       -8.104377E-06
 -5.500000E-01       -7.589118E-06
 -5.000000E-01       -7.058840E-06
 -4.500000E-01       -6.514591E-06
 -4.000000E-01       -5.956545E-06
 -3.500000E-01       -5.385200E-06
 -3.000000E-01       -4.796228E-06
 -2.500000E-01       -4.194431E-06
 -2.000000E-01       -3.592798E-06
 -1.500000E-01       -3.000807E-06
 -1.000000E-01       -2.433171E-06
 -5.000000E-02       -1.907458E-06
  0.000000E+00       -1.444967E-06
  5.000000E-02       -1.065708E-06
  1.000000E-01       -7.759231E-07
  1.500000E-01       -5.637738E-07
  2.000000E-01       -4.151897E-07
  2.500000E-01       -3.130781E-07
  3.000000E-01       -2.419897E-07
  3.500000E-01       -1.909725E-07
  4.000000E-01       -1.534872E-07
  4.500000E-01       -1.250590E-07
  5.000000E-01       -1.029337E-07
