

 One-dimensional plot values
 Input line #      29
 V(Gate)(Volts)      I(Drain)(Amps/um)   
 -1.500000E+00       -1.412728E-04
 -1.450000E+00       -1.381676E-04
 -1.400000E+00       -1.350661E-04
 -1.350000E+00       -1.319647E-04
 -1.300000E+00       -1.288670E-04
 -1.250000E+00       -1.257719E-04
 -1.200000E+00       -1.226829E-04
 -1.150000E+00       -1.195976E-04
 -1.100000E+00       -1.165185E-04
 -1.050000E+00       -1.134475E-04
 -1.000000E+00       -1.103913E-04
 -9.500000E-01       -1.073119E-04
 -9.000000E-01       -1.042507E-04
 -8.500000E-01       -1.012029E-04
 -8.000000E-01       -9.816531E-05
 -7.500000E-01       -9.514037E-05
 -7.000000E-01       -9.211562E-05
 -6.500000E-01       -8.911350E-05
 -6.000000E-01       -8.612951E-05
 -5.500000E-01       -8.314949E-05
 -5.000000E-01       -8.018414E-05
 -4.500000E-01       -7.725007E-05
 -4.000000E-01       -7.434163E-05
 -3.500000E-01       -7.147341E-05
 -3.000000E-01       -6.861386E-05
 -2.500000E-01       -6.577873E-05
 -2.000000E-01       -6.300630E-05
 -1.500000E-01       -6.030459E-05
 -1.000000E-01       -5.762443E-05
 -5.000000E-02       -5.502892E-05
  0.000000E+00        0.000000E+00
  0.000000E+00       -5.252262E-05
  3.125000E-02       -1.119625E-06
  5.000000E-02       -5.011492E-05
  6.250000E-02       -2.071138E-06
  1.000000E-01       -4.777993E-05
  1.250000E-01       -4.527697E-06
  1.500000E-01       -4.559622E-05
  2.000000E-01       -4.351015E-05
  2.500000E-01       -1.195039E-05
  2.500000E-01       -4.157731E-05
  3.000000E-01       -3.977824E-05
  3.500000E-01       -3.809359E-05
  3.750000E-01       -2.188544E-05
  4.000000E-01       -3.652100E-05
  4.500000E-01       -3.505202E-05
  5.000000E-01       -3.367262E-05
