

 One-dimensional plot values
 Input line #      33
 V(Gate)(Volts)      I(Drain)(Amps/um)   
 -5.000000E-01        2.151855E-15
 -4.500000E-01        2.239209E-15
 -4.000000E-01        2.467913E-15
 -3.500000E-01        3.209843E-15
 -3.000000E-01        5.946727E-15
 -2.500000E-01        1.686547E-14
 -2.000000E-01        6.303061E-14
 -1.500000E-01        2.671551E-13
 -1.000000E-01        1.200533E-12
 -5.000000E-02        5.577577E-12
  0.000000E+00        2.649427E-11
  5.000000E-02        1.278331E-10
  1.000000E-01        6.241582E-10
  1.500000E-01        3.081031E-09
  2.000000E-01        1.497429E-08
  2.500000E-01        6.155089E-08
  3.000000E-01        1.796424E-07
  3.500000E-01        3.773651E-07
  4.000000E-01        6.297089E-07
  4.500000E-01        9.097871E-07
  5.000000E-01        1.201910E-06
  5.500000E-01        1.498385E-06
  6.000000E-01        1.795490E-06
  6.500000E-01        2.091373E-06
  7.000000E-01        2.385091E-06
  7.500000E-01        2.676165E-06
  8.000000E-01        2.964363E-06
  8.500000E-01        3.249588E-06
  9.000000E-01        3.531818E-06
  9.500000E-01        3.811059E-06
  1.000000E+00        4.087376E-06
  1.050000E+00        4.360812E-06
  1.100000E+00        4.631461E-06
  1.150000E+00        4.899394E-06
  1.200000E+00        5.164684E-06
  1.250000E+00        5.427401E-06
  1.300000E+00        5.687614E-06
  1.350000E+00        5.945389E-06
  1.400000E+00        6.200787E-06
  1.450000E+00        6.453869E-06
  1.500000E+00        6.704691E-06
