

 One-dimensional plot values
 Input line #      33
 V(Drain)(Volts)     I(Drain)(Amps/um)   
  0.000000E+00       -5.490726E-24
  5.000000E-02        6.086837E-08
  1.000000E-01        8.094059E-08
  1.500000E-01        8.709376E-08
  2.000000E-01        9.002886E-08
  2.500000E-01        9.222968E-08
  3.000000E-01        9.419298E-08
  3.500000E-01        9.603705E-08
  4.000000E-01        9.780276E-08
  4.500000E-01        9.951040E-08
  5.000000E-01        1.011721E-07
  5.500000E-01        1.027956E-07
  6.000000E-01        1.043857E-07
  6.500000E-01        1.059451E-07
  7.000000E-01        1.074755E-07
  7.500000E-01        1.089776E-07
  8.000000E-01        1.104523E-07
  8.500000E-01        1.119022E-07
  9.000000E-01        1.133313E-07
  9.500000E-01        1.147449E-07
  1.000000E+00        1.161479E-07
  1.050000E+00        1.175440E-07
  1.100000E+00        1.189358E-07
  1.150000E+00        1.203249E-07
  1.200000E+00        1.217124E-07
  1.250000E+00        1.230992E-07
  1.300000E+00        1.244860E-07
  1.350000E+00        1.258733E-07
  1.400000E+00        1.272615E-07
  1.450000E+00        1.286512E-07
  1.500000E+00        1.300426E-07
  1.550000E+00        1.314363E-07
  1.600000E+00        1.328325E-07
  1.650000E+00        1.342318E-07
  1.700000E+00        1.356343E-07
  1.750000E+00        1.370403E-07
  1.800000E+00        1.384500E-07
  1.850000E+00        1.398639E-07
  1.900000E+00        1.412821E-07
  1.950000E+00        1.427048E-07
  2.000000E+00        1.441325E-07
