

 One-dimensional plot values
 Input line #      33
 V(Drain)(Volts)     I(Drain)(Amps/um)   
  0.000000E+00       -1.377598E-22
  5.000000E-02        3.725720E-07
  1.000000E-01        6.473721E-07
  1.500000E-01        8.338277E-07
  2.000000E-01        9.477239E-07
  2.500000E-01        1.011280E-06
  3.000000E-01        1.047510E-06
  3.500000E-01        1.071908E-06
  4.000000E-01        1.091466E-06
  4.500000E-01        1.108756E-06
  5.000000E-01        1.124730E-06
  5.500000E-01        1.139807E-06
  6.000000E-01        1.154210E-06
  6.500000E-01        1.168076E-06
  7.000000E-01        1.181491E-06
  7.500000E-01        1.194513E-06
  8.000000E-01        1.207177E-06
  8.500000E-01        1.219504E-06
  9.000000E-01        1.231506E-06
  9.500000E-01        1.243194E-06
  1.000000E+00        1.254588E-06
  1.050000E+00        1.265721E-06
  1.100000E+00        1.276639E-06
  1.150000E+00        1.287391E-06
  1.200000E+00        1.298011E-06
  1.250000E+00        1.308528E-06
  1.300000E+00        1.318958E-06
  1.350000E+00        1.329313E-06
  1.400000E+00        1.339600E-06
  1.450000E+00        1.349827E-06
  1.500000E+00        1.359998E-06
  1.550000E+00        1.370120E-06
  1.600000E+00        1.380196E-06
  1.650000E+00        1.390232E-06
  1.700000E+00        1.400230E-06
  1.750000E+00        1.410193E-06
  1.800000E+00        1.420126E-06
  1.850000E+00        1.430030E-06
  1.900000E+00        1.439908E-06
  1.950000E+00        1.449764E-06
  2.000000E+00        1.459600E-06
