

 One-dimensional plot values
 Input line #      33
 V(Gate)(Volts)      I(Drain)(Amps/um)   
 -5.000000E-01        2.179166E-07
 -4.500000E-01        2.650132E-07
 -4.000000E-01        3.255728E-07
 -3.500000E-01        4.055974E-07
 -3.000000E-01        5.147368E-07
 -2.500000E-01        6.683998E-07
 -2.000000E-01        8.903152E-07
 -1.500000E-01        1.213658E-06
 -1.000000E-01        1.679524E-06
 -5.000000E-02        2.331095E-06
  0.000000E+00        3.202324E-06
  5.000000E-02        4.302214E-06
  1.000000E-01        5.606229E-06
  1.500000E-01        7.065546E-06
  2.000000E-01        8.625775E-06
  2.500000E-01        1.024057E-05
  3.000000E-01        1.187605E-05
  3.500000E-01        1.350965E-05
  4.000000E-01        1.512717E-05
  4.500000E-01        1.672015E-05
  5.000000E-01        1.828379E-05
  5.500000E-01        1.981561E-05
  6.000000E-01        2.131464E-05
  6.500000E-01        2.278078E-05
  7.000000E-01        2.421451E-05
  7.500000E-01        2.561664E-05
  8.000000E-01        2.698815E-05
  8.500000E-01        2.833016E-05
  9.000000E-01        2.964373E-05
  9.500000E-01        3.092901E-05
  1.000000E+00        3.218773E-05
  1.050000E+00        3.342101E-05
  1.100000E+00        3.463070E-05
  1.150000E+00        3.581781E-05
  1.200000E+00        3.698331E-05
  1.250000E+00        3.812811E-05
  1.300000E+00        3.925306E-05
  1.350000E+00        4.035896E-05
  1.400000E+00        4.144656E-05
  1.450000E+00        4.251657E-05
  1.500000E+00        4.356966E-05
